M(GLUINO) [GeV],"Efficiency, bin 15"
1000.0,0.0010143
1100.0,0.0008382
1200.0,0.000661
1300.0,0.0005324
1400.0,0.0004038
1500.0,0.0003531
1600.0,0.0002453
1700.0,0.0002068
1800.0,0.0001852
1900.0,0.0001282
2000.0,8.84e-05
2100.0,7.71e-05
2200.0,5.37e-05
2300.0,4.96e-05
2400.0,2.82e-05
2500.0,2.85e-05
