M(GLUINO) [GeV],"Efficiency, bin 19"
1000.0,0.0077205
1100.0,0.013059
1200.0,0.01871
1300.0,0.024556
1400.0,0.029749
1500.0,0.035211
1600.0,0.039844
1700.0,0.043803
1800.0,0.046359
1900.0,0.051657
2000.0,0.054844
2100.0,0.05695
2200.0,0.060145
2300.0,0.061821
2400.0,0.06354
2500.0,0.066039
