M(GLUINO) [GeV],"Efficiency, bin 22"
1000.0,0.0049951
1100.0,0.0089052
1200.0,0.013942
1300.0,0.018793
1400.0,0.023883
1500.0,0.027557
1600.0,0.032325
1700.0,0.035996
1800.0,0.039243
1900.0,0.042273
2000.0,0.044687
2100.0,0.04829
2200.0,0.049719
2300.0,0.052191
2400.0,0.053626
2500.0,0.055428
