#: table_doi: 10.17182/hepdata.127766.v1/t12
#: name: Figure 4b Observed Lines
#: description: Observed exclusion limits assuming the approximate-NLO+NLL cross sections
#: data_file: figure_4b_observed_lines.yaml
#: keyword cmenergies: 13000
#: keyword observables: Cross-section
#: keyword phrases: Supersymmetry | SUSY
m(NSLP) [GeV],max m(LSP) [GeV] excluded
235.22,0.5
236.15,17.383
238.64,23.853
243.04,31.139
249.26,38.739
257.45,46.876
266.97,55.143
277.38,63.516
288.57,71.374
299.73,79.226
310.87,86.921
321.69,94.13
332.48,100.63
343.0,106.2
353.17,111.27
363.13,115.63
372.91,119.73
382.12,123.27
391.47,126.83
400.67,130.42
409.93,134.41
419.43,138.63
429.02,142.91
438.64,147.49
448.19,152.24
457.33,157.14
466.38,162.02
475.1,166.74
483.94,171.26
492.98,175.64
502.16,179.81
512.1,183.83
522.67,187.77
533.7,191.66
545.19,195.91
557.02,200.34
568.7,204.9
580.13,209.47
591.11,213.82
601.4,217.54
610.77,220.45
619.61,222.23
628.0,222.85
636.09,222.42
644.14,220.75
652.38,218.39
661.15,215.01
670.32,210.93
679.69,206.33
689.17,200.9
698.38,194.75
707.24,187.98
715.33,180.29
722.43,172.06
728.54,162.97
733.54,153.28
737.62,143.43
741.08,133.25
743.84,123.24
746.37,113.3
748.78,103.47
751.27,94.078
753.8,84.624
756.34,74.789
758.69,64.733
760.66,54.334
762.12,44.039
763.09,33.986
763.48,24.734
763.36,0.5
237.07,237.53,239.61,243.7,249.81,257.64,266.65,276.27,285.94,294.82,303.04,310.33,317.18,323.48,329.71,336.01,342.44,349.31,356.54,364.28,372.7,381.79,391.34,401.41,411.74,422.13,432.57,442.88,452.97,462.44,471.9,480.82,489.25,497.58,506.08,514.88,524.18,534.29,544.87,556.23,568.28,580.65,593.05,605.45,617.81,629.38,640.52,650.95,660.56,669.12,676.83,684.01,690.52,696.28,701.59,706.62,711.07,714.99,717.93,720.31,721.97,722.93,723.36,723.39,724.01,725.44,727.46,730.33,733.88,737.27,740.19,742.04,742.6,741.97,740.39,207.03,211.74,218.06,225.74,234.54,244.19,254.58,265.35,276.42,287.54,298.65,309.65,320.46,330.91,340.92,350.53,359.81,368.93,377.75,386.7,395.71,404.97,414.52,424.07,433.93,443.98,453.87,463.97,473.95,483.6,493.38,502.98,512.67,522.74,533.04,543.75,554.64,565.77,577.01,588.05,599.08,610.25,621.45,632.96,644.85,656.98,669.44,681.79,693.56,704.65,714.74,723.63,731.58,738.59,744.71,750.33,755.57,760.56,765.41,769.94,774.26,777.85,780.88,783.44,785.22,786.51,787.4,787.95,788.21,788.32,788.19,788.04,787.68,
m(NSLP) [GeV],max m(LSP) [GeV] excluded +1 sigma
235.22,236.15,238.64,243.04,249.26,257.45,266.97,277.38,288.57,299.73,310.87,321.69,332.48,343.0,353.17,363.13,372.91,382.12,391.47,400.67,409.93,419.43,429.02,438.64,448.19,457.33,466.38,475.1,483.94,492.98,502.16,512.1,522.67,533.7,545.19,557.02,568.7,580.13,591.11,601.4,610.77,619.61,628.0,636.09,644.14,652.38,661.15,670.32,679.69,689.17,698.38,707.24,715.33,722.43,728.54,733.54,737.62,741.08,743.84,746.37,748.78,751.27,753.8,756.34,758.69,760.66,762.12,763.09,763.48,763.36,237.07,0.5
237.53,16.392
239.61,22.532
243.7,29.494
249.81,36.791
257.64,44.108
266.65,51.332
276.27,58.44
285.94,64.897
294.82,71.227
303.04,77.242
310.33,82.768
317.18,87.612
323.48,91.566
329.71,95.119
336.01,97.863
342.44,100.25
349.31,102.55
356.54,104.94
364.28,107.73
372.7,111.16
381.79,114.99
391.34,119.11
401.41,123.48
411.74,127.97
422.13,132.57
432.57,136.93
442.88,141.66
452.97,146.52
462.44,151.44
471.9,156.26
480.82,160.78
489.25,164.88
497.58,168.67
506.08,172.18
514.88,175.02
524.18,177.67
534.29,180.16
544.87,182.66
556.23,184.78
568.28,186.77
580.65,188.49
593.05,189.8
605.45,190.31
617.81,189.59
629.38,188.15
640.52,185.88
650.95,183.3
660.56,180.4
669.12,177.77
676.83,175.68
684.01,173.68
690.52,171.24
696.28,168.15
701.59,163.77
706.62,157.82
711.07,150.51
714.99,141.41
717.93,131.45
720.31,121.22
721.97,110.82
722.93,100.55
723.36,90.563
723.39,80.974
724.01,71.729
725.44,62.696
727.46,54.341
730.33,46.933
733.88,40.479
737.27,34.637
740.19,29.564
742.04,24.923
742.6,20.757
741.97,16.656
740.39,0.5
207.03,211.74,218.06,225.74,234.54,244.19,254.58,265.35,276.42,287.54,298.65,309.65,320.46,330.91,340.92,350.53,359.81,368.93,377.75,386.7,395.71,404.97,414.52,424.07,433.93,443.98,453.87,463.97,473.95,483.6,493.38,502.98,512.67,522.74,533.04,543.75,554.64,565.77,577.01,588.05,599.08,610.25,621.45,632.96,644.85,656.98,669.44,681.79,693.56,704.65,714.74,723.63,731.58,738.59,744.71,750.33,755.57,760.56,765.41,769.94,774.26,777.85,780.88,783.44,785.22,786.51,787.4,787.95,788.21,788.32,788.19,788.04,787.68,
m(NSLP) [GeV],max m(LSP) [GeV] excluded -1 sigma
235.22,236.15,238.64,243.04,249.26,257.45,266.97,277.38,288.57,299.73,310.87,321.69,332.48,343.0,353.17,363.13,372.91,382.12,391.47,400.67,409.93,419.43,429.02,438.64,448.19,457.33,466.38,475.1,483.94,492.98,502.16,512.1,522.67,533.7,545.19,557.02,568.7,580.13,591.11,601.4,610.77,619.61,628.0,636.09,644.14,652.38,661.15,670.32,679.69,689.17,698.38,707.24,715.33,722.43,728.54,733.54,737.62,741.08,743.84,746.37,748.78,751.27,753.8,756.34,758.69,760.66,762.12,763.09,763.48,763.36,237.07,237.53,239.61,243.7,249.81,257.64,266.65,276.27,285.94,294.82,303.04,310.33,317.18,323.48,329.71,336.01,342.44,349.31,356.54,364.28,372.7,381.79,391.34,401.41,411.74,422.13,432.57,442.88,452.97,462.44,471.9,480.82,489.25,497.58,506.08,514.88,524.18,534.29,544.87,556.23,568.28,580.65,593.05,605.45,617.81,629.38,640.52,650.95,660.56,669.12,676.83,684.01,690.52,696.28,701.59,706.62,711.07,714.99,717.93,720.31,721.97,722.93,723.36,723.39,724.01,725.44,727.46,730.33,733.88,737.27,740.19,742.04,742.6,741.97,740.39,207.03,0.5
211.74,14.635
218.06,20.617
225.74,27.184
234.54,34.302
244.19,41.657
254.58,49.435
265.35,57.406
276.42,65.448
287.54,73.542
298.65,81.678
309.65,89.722
320.46,97.403
330.91,104.37
340.92,110.3
350.53,115.61
359.81,120.1
368.93,124.18
377.75,127.98
386.7,131.97
395.71,136.0
404.97,140.53
414.52,145.35
424.07,150.22
433.93,155.14
443.98,160.2
453.87,165.21
463.97,170.3
473.95,175.39
483.6,180.33
493.38,185.09
502.98,189.62
512.67,193.98
522.74,198.05
533.04,201.98
543.75,206.03
554.64,210.29
565.77,214.61
577.01,219.14
588.05,223.39
599.08,227.23
610.25,230.3
621.45,232.5
632.96,233.89
644.85,234.48
656.98,234.33
669.44,233.72
681.79,232.48
693.56,230.46
704.65,227.34
714.74,223.0
723.63,217.48
731.58,210.48
738.59,202.42
744.71,193.63
750.33,184.69
755.57,175.73
760.56,167.12
765.41,158.65
769.94,150.44
774.26,142.22
777.85,133.65
780.88,124.29
783.44,114.19
785.22,103.62
786.51,92.369
787.4,80.539
787.95,68.318
788.21,56.389
788.32,44.888
788.19,34.327
788.04,24.912
787.68,0.5

