#: table_doi: 10.17182/hepdata.127766.v1/t9
#: name: Figure 4a Observed Lines
#: description: Observed exclusion limits assuming the approximate-NLO+NLL cross sections
#: data_file: figure_4a_observed_lines.yaml
#: keyword cmenergies: 13000
#: keyword observables: Cross-section
#: keyword phrases: Supersymmetry | SUSY
m(NSLP) [GeV],max m(LSP) [GeV] excluded
291.0,0.5
291.93,18.527
293.81,26.399
296.67,34.516
301.22,42.401
307.33,49.526
315.02,55.996
324.27,61.859
334.87,67.82
346.18,73.622
357.68,79.45
369.63,85.578
381.15,91.622
392.21,97.63
402.76,103.98
413.24,110.96
423.52,118.37
433.48,125.89
443.44,133.43
453.58,140.97
463.42,148.11
472.25,154.43
480.85,160.41
489.0,166.04
497.05,171.32
505.32,176.44
514.09,181.53
523.82,186.49
533.75,191.05
544.3,195.08
555.39,198.22
566.57,200.03
577.42,200.07
587.9,198.21
597.28,194.15
605.52,188.42
612.34,181.42
617.92,173.74
623.13,165.88
628.0,158.24
633.05,151.27
638.23,144.25
643.04,137.22
647.12,129.22
650.21,120.55
652.17,111.11
653.53,100.83
654.44,90.104
655.49,79.079
656.8,67.734
658.54,55.997
660.63,44.577
662.71,33.425
664.6,23.585
666.17,0.5
301.12,301.19,302.03,303.73,306.76,311.4,317.97,326.14,335.46,345.99,357.15,368.75,380.38,392.1,403.68,415.24,426.37,437.22,447.94,458.06,467.93,477.41,486.57,495.28,503.34,511.01,519.15,527.64,536.74,546.96,557.93,569.1,579.8,589.89,598.98,606.86,613.37,619.01,623.63,627.04,629.53,631.59,633.66,635.79,638.25,640.79,643.31,645.25,646.32,646.72,281.68,283.57,286.58,290.79,296.34,303.38,312.12,322.08,332.68,343.98,355.12,365.61,374.87,383.58,391.46,399.31,407.19,415.53,424.55,433.62,442.83,451.92,460.73,468.82,476.98,484.83,492.69,501.18,510.42,520.49,531.63,543.64,555.84,567.75,578.98,589.63,599.63,609.04,617.98,626.58,634.25,640.97,646.89,652.02,656.59,660.9,665.13,668.59,671.28,673.06,674.12,674.7,675.28,675.93,676.74,677.43,677.75,677.62,677.24,676.85,676.86,677.45,678.56,680.07,681.53,
m(NSLP) [GeV],max m(LSP) [GeV] excluded +1 sigma
291.0,291.93,293.81,296.67,301.22,307.33,315.02,324.27,334.87,346.18,357.68,369.63,381.15,392.21,402.76,413.24,423.52,433.48,443.44,453.58,463.42,472.25,480.85,489.0,497.05,505.32,514.09,523.82,533.75,544.3,555.39,566.57,577.42,587.9,597.28,605.52,612.34,617.92,623.13,628.0,633.05,638.23,643.04,647.12,650.21,652.17,653.53,654.44,655.49,656.8,658.54,660.63,662.71,664.6,666.17,301.12,0.5
301.19,15.008
302.03,21.498
303.73,28.445
306.76,35.428
311.4,41.949
317.97,48.059
326.14,53.291
335.46,58.335
345.99,63.489
357.15,68.671
368.75,74.536
380.38,80.97
392.1,88.095
403.68,95.786
415.24,104.08
426.37,112.33
437.22,120.49
447.94,128.37
458.06,135.75
467.93,142.39
477.41,148.57
486.57,154.38
495.28,159.66
503.34,164.42
511.01,168.6
519.15,172.08
527.64,174.71
536.74,176.37
546.96,177.0
557.93,176.54
569.1,174.65
579.8,171.32
589.89,166.63
598.98,160.72
606.86,153.92
613.37,146.39
619.01,138.52
623.63,130.12
627.04,121.2
629.53,111.71
631.59,101.44
633.66,90.949
635.79,79.791
638.25,68.755
640.79,57.47
643.31,46.625
645.25,36.008
646.32,26.262
646.72,0.5
281.68,283.57,286.58,290.79,296.34,303.38,312.12,322.08,332.68,343.98,355.12,365.61,374.87,383.58,391.46,399.31,407.19,415.53,424.55,433.62,442.83,451.92,460.73,468.82,476.98,484.83,492.69,501.18,510.42,520.49,531.63,543.64,555.84,567.75,578.98,589.63,599.63,609.04,617.98,626.58,634.25,640.97,646.89,652.02,656.59,660.9,665.13,668.59,671.28,673.06,674.12,674.7,675.28,675.93,676.74,677.43,677.75,677.62,677.24,676.85,676.86,677.45,678.56,680.07,681.53,
m(NSLP) [GeV],max m(LSP) [GeV] excluded -1 sigma
291.0,291.93,293.81,296.67,301.22,307.33,315.02,324.27,334.87,346.18,357.68,369.63,381.15,392.21,402.76,413.24,423.52,433.48,443.44,453.58,463.42,472.25,480.85,489.0,497.05,505.32,514.09,523.82,533.75,544.3,555.39,566.57,577.42,587.9,597.28,605.52,612.34,617.92,623.13,628.0,633.05,638.23,643.04,647.12,650.21,652.17,653.53,654.44,655.49,656.8,658.54,660.63,662.71,664.6,666.17,301.12,301.19,302.03,303.73,306.76,311.4,317.97,326.14,335.46,345.99,357.15,368.75,380.38,392.1,403.68,415.24,426.37,437.22,447.94,458.06,467.93,477.41,486.57,495.28,503.34,511.01,519.15,527.64,536.74,546.96,557.93,569.1,579.8,589.89,598.98,606.86,613.37,619.01,623.63,627.04,629.53,631.59,633.66,635.79,638.25,640.79,643.31,645.25,646.32,646.72,281.68,0.5
283.57,19.62
286.58,27.947
290.79,36.629
296.34,44.908
303.38,52.618
312.12,60.028
322.08,66.935
332.68,73.948
343.98,80.974
355.12,88.346
365.61,95.427
374.87,102.03
383.58,107.99
391.46,113.39
399.31,118.54
407.19,123.35
415.53,128.12
424.55,133.15
433.62,138.38
442.83,143.5
451.92,148.93
460.73,154.45
468.82,159.83
476.98,165.04
484.83,170.2
492.69,175.42
501.18,180.98
510.42,186.81
520.49,192.91
531.63,199.23
543.64,205.4
555.84,211.04
567.75,215.87
578.98,219.3
589.63,220.62
599.63,219.86
609.04,216.63
617.98,211.29
626.58,204.52
634.25,196.9
640.97,188.81
646.89,180.92
652.02,173.08
656.59,165.17
660.9,157.16
665.13,148.85
668.59,140.23
671.28,131.62
673.06,123.27
674.12,115.15
674.7,107.51
675.28,99.927
675.93,92.204
676.74,84.522
677.43,76.875
677.75,69.648
677.62,63.251
677.24,57.075
676.85,51.303
676.86,45.266
677.45,38.629
678.56,31.284
680.07,23.728
681.53,0.5

